Data from 03 0.2 mM BQDS 0.4 mM K2Cr2O7 1 M H2SO4 5 min_Absorbance_02-22-42-415.txt Node
Date: Wed Dec 08 02:22:42 EST 2021
User: kwabilab-user
Spectrometer: HDX00518
Trigger mode: 0
Integration Time (sec): 5.000000E-2
Scans to average: 50
Nonlinearity correction enabled: false
Boxcar width: 0
Storing dark spectrum: false
XAxis mode: Wavelengths
Number of Pixels in Spectrum: 2068
>>>>>Begin Spectral Data<<<<<
195.27	0.2483
195.642	0.2198
196.014	0.2515
196.386	0.1754
196.758	0.0541
197.129	0.056
197.501	0.0687
197.872	0.1116
198.244	0.1291
198.615	0.1326
198.986	0.1334
199.357	0.1002
199.728	0.1438
200.099	0.1292
200.47	0.1322
200.841	0.1273
201.212	0.1357
201.582	0.1348
201.953	0.1233
202.323	0.1277
202.694	0.1237
203.064	0.1253
203.434	0.1056
203.804	0.144
204.174	0.1144
204.544	0.1377
204.914	0.1217
205.284	0.1463
205.653	0.1494
206.023	0.1363
206.393	0.1363
206.762	0.1494
207.131	0.1285
207.501	0.1416
207.87	0.1515
208.239	0.1446
208.608	0.1458
208.977	0.1542
209.346	0.1605
209.715	0.1578
210.083	0.1477
210.452	0.1659
210.82	0.1534
211.189	0.1659
211.557	0.1537
211.925	0.1813
212.294	0.1978
212.662	0.1941
213.03	0.1926
213.398	0.1707
213.766	0.2055
214.133	0.2211
214.501	0.2217
214.869	0.2292
215.236	0.2513
215.604	0.2614
215.971	0.2556
216.338	0.2811
216.705	0.3126
217.072	0.3184
217.439	0.3429
217.806	0.3726
218.173	0.3961
218.54	0.4177
218.907	0.4592
219.273	0.5055
219.64	0.5467
220.006	0.5736
220.373	0.5987
220.739	0.6546
221.105	0.681
221.471	0.7008
221.837	0.7462
222.203	0.7915
222.569	0.8262
222.935	0.8362
223.3	0.8676
223.666	0.8998
224.031	0.9167
224.397	0.9371
224.762	0.9555
225.127	0.9607
225.493	0.9818
225.858	0.9895
226.223	0.9865
226.588	1.0046
226.952	1.0063
227.317	1.0145
227.682	1.0096
228.046	0.9998
228.411	1.0077
228.775	0.9973
229.14	0.994
229.504	0.9893
229.868	0.9865
230.232	0.9776
230.596	0.9736
230.96	0.9625
231.324	0.9551
231.688	0.9465
232.052	0.9398
232.415	0.9272
232.779	0.9246
233.142	0.9128
233.505	0.8981
233.869	0.8925
234.232	0.8889
234.595	0.8719
234.958	0.8607
235.321	0.8515
235.684	0.8455
236.047	0.8352
236.409	0.8237
236.772	0.8143
237.134	0.8081
237.497	0.8014
237.859	0.791
238.222	0.7832
238.584	0.7744
238.946	0.7656
239.308	0.7623
239.67	0.7518
240.032	0.7444
240.393	0.7378
240.755	0.7318
241.117	0.7243
241.478	0.7215
241.84	0.7141
242.201	0.7065
242.562	0.6986
242.924	0.6944
243.285	0.6901
243.646	0.6814
244.007	0.6823
244.368	0.6764
244.728	0.6699
245.089	0.6665
245.45	0.6629
245.81	0.6591
246.171	0.6552
246.531	0.6509
246.891	0.6485
247.252	0.6459
247.612	0.6435
247.972	0.639
248.332	0.6374
248.692	0.6339
249.051	0.6311
249.411	0.6308
249.771	0.6259
250.13	0.6275
250.49	0.6245
250.849	0.62
251.208	0.6208
251.568	0.6195
251.927	0.6138
252.286	0.6155
252.645	0.6145
253.004	0.6111
253.363	0.6085
253.721	0.6104
254.08	0.611
254.439	0.6062
254.797	0.6045
255.155	0.6036
255.514	0.6029
255.872	0.6014
256.23	0.6004
256.588	0.6001
256.946	0.6004
257.304	0.5989
257.662	0.5974
258.02	0.5972
258.377	0.5956
258.735	0.5925
259.093	0.5931
259.45	0.5915
259.807	0.5924
260.165	0.5912
260.522	0.5886
260.879	0.5871
261.236	0.5845
261.593	0.5842
261.95	0.5812
262.306	0.5815
262.663	0.5796
263.02	0.5786
263.376	0.5763
263.733	0.5735
264.089	0.5734
264.445	0.5719
264.802	0.5692
265.158	0.5664
265.514	0.5645
265.87	0.5647
266.226	0.561
266.581	0.5594
266.937	0.5556
267.293	0.5558
267.648	0.5531
268.004	0.5494
268.359	0.5475
268.714	0.5435
269.07	0.5436
269.425	0.5386
269.78	0.5371
270.135	0.5337
270.49	0.5311
270.844	0.5296
271.199	0.5262
271.554	0.5235
271.908	0.5201
272.263	0.5166
272.617	0.5137
272.972	0.512
273.326	0.5078
273.68	0.5037
274.034	0.5016
274.388	0.4972
274.742	0.4942
275.096	0.49
275.45	0.487
275.803	0.4824
276.157	0.4769
276.51	0.4761
276.864	0.4735
277.217	0.468
277.571	0.464
277.924	0.4603
278.277	0.4567
278.63	0.4518
278.983	0.4478
279.336	0.4441
279.688	0.4408
280.041	0.4354
280.394	0.4307
280.746	0.4276
281.099	0.4234
281.451	0.4189
281.803	0.4152
282.156	0.4114
282.508	0.4075
282.86	0.4022
283.212	0.3979
283.564	0.3942
283.916	0.3897
284.267	0.3859
284.619	0.3821
284.971	0.379
285.322	0.3749
285.673	0.3709
286.025	0.3671
286.376	0.3623
286.727	0.3586
287.078	0.3535
287.429	0.3511
287.78	0.3451
288.131	0.3424
288.482	0.3381
288.833	0.3346
289.183	0.33
289.534	0.3269
289.884	0.3228
290.235	0.3181
290.585	0.3141
290.935	0.3094
291.285	0.3066
291.635	0.3027
291.985	0.2989
292.335	0.2948
292.685	0.2913
293.035	0.2878
293.384	0.2837
293.734	0.2796
294.083	0.2752
294.433	0.2717
294.782	0.2689
295.131	0.2648
295.48	0.2626
295.829	0.2583
296.179	0.2541
296.527	0.2511
296.876	0.248
297.225	0.2456
297.574	0.2407
297.922	0.2387
298.271	0.2347
298.619	0.2313
298.968	0.2292
299.316	0.2259
299.664	0.2228
300.012	0.2197
300.36	0.2164
300.708	0.2138
301.056	0.2114
301.404	0.2088
301.752	0.2056
302.099	0.2031
302.447	0.2014
302.794	0.1987
303.142	0.1969
303.489	0.1945
303.836	0.1919
304.183	0.1904
304.531	0.1888
304.878	0.1864
305.224	0.1842
305.571	0.1827
305.918	0.1814
306.265	0.1788
306.611	0.1778
306.958	0.1764
307.304	0.1753
307.651	0.174
307.997	0.1727
308.343	0.1715
308.689	0.1701
309.035	0.1695
309.381	0.1687
309.727	0.1672
310.073	0.1667
310.419	0.166
310.764	0.1652
311.11	0.1647
311.455	0.1637
311.801	0.1629
312.146	0.1626
312.491	0.1624
312.837	0.1626
313.182	0.162
313.527	0.1615
313.872	0.1617
314.216	0.1619
314.561	0.1611
314.906	0.1616
315.251	0.1618
315.595	0.161
315.94	0.1612
316.284	0.1612
316.628	0.162
316.972	0.1621
317.317	0.1616
317.661	0.1624
318.005	0.1626
318.348	0.1622
318.692	0.1634
319.036	0.1638
319.38	0.1648
319.723	0.1651
320.067	0.1658
320.41	0.1667
320.754	0.1674
321.097	0.1678
321.44	0.1686
321.783	0.1698
322.126	0.1704
322.469	0.1712
322.812	0.1723
323.155	0.1736
323.498	0.1742
323.84	0.1759
324.183	0.1765
324.525	0.1778
324.868	0.1785
325.21	0.1805
325.552	0.1818
325.894	0.182
326.236	0.1833
326.578	0.1849
326.92	0.186
327.262	0.1871
327.604	0.1879
327.946	0.19
328.287	0.1912
328.629	0.1911
328.97	0.1933
329.312	0.1944
329.653	0.1956
329.994	0.197
330.335	0.1987
330.676	0.2003
331.017	0.201
331.358	0.2024
331.699	0.2045
332.04	0.2057
332.38	0.2066
332.721	0.209
333.061	0.2088
333.402	0.2108
333.742	0.2121
334.083	0.2138
334.423	0.2147
334.763	0.2153
335.103	0.2174
335.443	0.2182
335.783	0.2185
336.123	0.2197
336.462	0.2214
336.802	0.2222
337.141	0.2232
337.481	0.2249
337.82	0.2252
338.16	0.2255
338.499	0.227
338.838	0.2285
339.177	0.2299
339.516	0.2306
339.855	0.2321
340.194	0.233
340.533	0.2338
340.872	0.2347
341.21	0.2358
341.549	0.2362
341.887	0.2374
342.226	0.2379
342.564	0.2379
342.902	0.2388
343.24	0.2393
343.578	0.2393
343.916	0.2399
344.254	0.2402
344.592	0.2403
344.93	0.2406
345.268	0.2407
345.605	0.2407
345.943	0.2407
346.28	0.2404
346.618	0.2418
346.955	0.2415
347.292	0.2418
347.629	0.2423
347.966	0.2424
348.303	0.242
348.64	0.2418
348.977	0.2419
349.314	0.2419
349.65	0.2418
349.987	0.2421
350.324	0.2411
350.66	0.2414
350.996	0.2412
351.333	0.2396
351.669	0.2394
352.005	0.2386
352.341	0.2381
352.677	0.2379
353.013	0.2364
353.349	0.2353
353.685	0.2345
354.02	0.2334
354.356	0.233
354.691	0.2318
355.027	0.231
355.362	0.229
355.697	0.2297
356.033	0.2278
356.368	0.2265
356.703	0.2263
357.038	0.2253
357.373	0.2245
357.707	0.2238
358.042	0.2224
358.377	0.2219
358.711	0.2206
359.046	0.2198
359.38	0.2181
359.715	0.2173
360.049	0.2162
360.383	0.2153
360.717	0.2141
361.051	0.2121
361.385	0.2106
361.719	0.2096
362.053	0.2081
362.387	0.206
362.72	0.2039
363.054	0.2022
363.387	0.2007
363.721	0.1995
364.054	0.1966
364.387	0.1951
364.721	0.194
365.054	0.1921
365.387	0.1905
365.72	0.1888
366.053	0.1872
366.385	0.1851
366.718	0.1843
367.051	0.1827
367.383	0.1807
367.716	0.18
368.048	0.1782
368.381	0.1774
368.713	0.1755
369.045	0.1746
369.377	0.1726
369.709	0.1719
370.041	0.1704
370.373	0.1697
370.705	0.1674
371.037	0.1659
371.368	0.1638
371.7	0.1629
372.031	0.1609
372.363	0.1591
372.694	0.1573
373.025	0.1557
373.356	0.1536
373.688	0.1506
374.019	0.1494
374.35	0.1477
374.68	0.145
375.011	0.1427
375.342	0.1415
375.673	0.1403
376.003	0.1377
376.334	0.136
376.664	0.134
376.995	0.1328
377.325	0.1312
377.655	0.1309
377.985	0.1282
378.315	0.1272
378.645	0.1258
378.975	0.1242
379.305	0.1237
379.635	0.122
379.964	0.1207
380.294	0.1192
380.623	0.1178
380.953	0.117
381.282	0.1155
381.611	0.1137
381.941	0.1126
382.27	0.1117
382.599	0.1101
382.928	0.1082
383.257	0.1071
383.585	0.1057
383.914	0.1044
384.243	0.1026
384.571	0.1008
384.9	0.0992
385.228	0.0976
385.557	0.0962
385.885	0.0949
386.213	0.0929
386.541	0.0918
386.869	0.0905
387.197	0.0884
387.525	0.0865
387.853	0.0854
388.181	0.0839
388.508	0.0838
388.836	0.0822
389.164	0.081
389.491	0.0795
389.818	0.0783
390.146	0.0769
390.473	0.0757
390.8	0.0748
391.127	0.0734
391.454	0.0726
391.781	0.0716
392.108	0.0709
392.435	0.0691
392.761	0.0682
393.088	0.0679
393.415	0.0669
393.741	0.0666
394.067	0.0655
394.394	0.0653
394.72	0.0645
395.046	0.0627
395.372	0.0619
395.698	0.0606
396.024	0.0606
396.35	0.0594
396.676	0.0592
397.001	0.058
397.327	0.0569
397.653	0.0558
397.978	0.0548
398.303	0.0542
398.629	0.0529
398.954	0.0533
399.279	0.0528
399.604	0.0521
399.929	0.051
400.254	0.0504
400.579	0.0502
400.904	0.0492
401.229	0.0486
401.553	0.0476
401.878	0.0475
402.202	0.047
402.527	0.0465
402.851	0.0463
403.175	0.0453
403.5	0.0452
403.824	0.0454
404.148	0.0442
404.472	0.0443
404.796	0.0432
405.119	0.0431
405.443	0.0429
405.767	0.0423
406.09	0.0422
406.414	0.0427
406.737	0.0419
407.061	0.0418
407.384	0.0416
407.707	0.0416
408.03	0.0416
408.353	0.042
408.676	0.0414
408.999	0.0407
409.322	0.0414
409.645	0.041
409.968	0.0405
410.29	0.0407
410.613	0.0401
410.935	0.04
411.258	0.0407
411.58	0.0405
411.902	0.0402
412.224	0.0403
412.546	0.0399
412.868	0.0395
413.19	0.0397
413.512	0.0393
413.834	0.0399
414.156	0.0402
414.477	0.0394
414.799	0.0394
415.121	0.0401
415.442	0.04
415.763	0.0408
416.085	0.0399
416.406	0.0406
416.727	0.0402
417.048	0.0399
417.369	0.0397
417.69	0.0398
418.011	0.0399
418.331	0.0401
418.652	0.0403
418.973	0.0402
419.293	0.0399
419.614	0.0403
419.934	0.0398
420.254	0.0403
420.574	0.0404
420.895	0.0402
421.215	0.0395
421.535	0.0399
421.855	0.0397
422.174	0.0398
422.494	0.0402
422.814	0.0406
423.134	0.04
423.453	0.0406
423.773	0.0405
424.092	0.04
424.411	0.0406
424.731	0.0408
425.05	0.0409
425.369	0.04
425.688	0.0407
426.007	0.0412
426.326	0.0409
426.644	0.0417
426.963	0.0415
427.282	0.0413
427.6	0.041
427.919	0.0411
428.237	0.0409
428.556	0.0419
428.874	0.0418
429.192	0.0416
429.51	0.0414
429.828	0.0417
430.146	0.0419
430.464	0.0416
430.782	0.0415
431.1	0.0414
431.418	0.0412
431.735	0.0414
432.053	0.0418
432.37	0.042
432.688	0.0417
433.005	0.0417
433.322	0.0422
433.639	0.0418
433.957	0.0414
434.274	0.0419
434.591	0.0419
434.907	0.0422
435.224	0.042
435.541	0.0423
435.858	0.043
436.174	0.043
436.491	0.0425
436.807	0.0425
437.124	0.0416
437.44	0.0416
437.756	0.0422
438.072	0.0416
438.388	0.0423
438.704	0.0424
439.02	0.0426
439.336	0.0423
439.652	0.0418
439.968	0.0418
440.283	0.042
440.599	0.042
440.914	0.0422
441.23	0.0415
441.545	0.042
441.86	0.042
442.175	0.0424
442.491	0.0414
442.806	0.0413
443.121	0.0422
443.435	0.0411
443.75	0.0419
444.065	0.042
444.38	0.0421
444.694	0.0415
445.009	0.0417
445.323	0.0416
445.638	0.0413
445.952	0.0419
446.266	0.0412
446.58	0.0419
446.894	0.0417
447.208	0.0417
447.522	0.0414
447.836	0.0402
448.15	0.0408
448.464	0.0405
448.777	0.0407
449.091	0.0401
449.404	0.0408
449.718	0.041
450.031	0.0406
450.345	0.0404
450.658	0.0399
450.971	0.0405
451.284	0.0401
451.597	0.0404
451.91	0.0405
452.223	0.0402
452.535	0.0403
452.848	0.0399
453.161	0.04
453.473	0.0405
453.786	0.0399
454.098	0.0395
454.411	0.0393
454.723	0.0395
455.035	0.0391
455.347	0.039
455.659	0.0398
455.971	0.0398
456.283	0.0391
456.595	0.0384
456.907	0.039
457.218	0.039
457.53	0.0394
457.841	0.0383
458.153	0.0383
458.464	0.0373
458.776	0.0364
459.087	0.0369
459.398	0.0372
459.709	0.037
460.02	0.0364
460.331	0.0369
460.642	0.0365
460.953	0.0364
461.263	0.0365
461.574	0.0363
461.885	0.0357
462.195	0.0364
462.506	0.0364
462.816	0.0355
463.126	0.035
463.437	0.035
463.747	0.0339
464.057	0.035
464.367	0.035
464.677	0.0341
464.987	0.0342
465.296	0.0345
465.606	0.0334
465.916	0.0333
466.225	0.033
466.535	0.0325
466.844	0.0334
467.154	0.0325
467.463	0.032
467.772	0.0327
468.081	0.032
468.39	0.0324
468.699	0.0316
469.008	0.0322
469.317	0.032
469.626	0.0313
469.935	0.0314
470.243	0.0314
470.552	0.0315
470.86	0.0314
471.169	0.0306
471.477	0.0305
471.785	0.0313
472.093	0.0303
472.402	0.0304
472.71	0.0301
473.018	0.0296
473.326	0.0287
473.633	0.0298
473.941	0.0289
474.249	0.0287
474.556	0.0283
474.864	0.0277
475.171	0.0278
475.479	0.0284
475.786	0.0284
476.094	0.0282
476.401	0.0283
476.708	0.0271
477.015	0.027
477.322	0.0275
477.629	0.0274
477.936	0.0261
478.242	0.0263
478.549	0.0259
478.856	0.0257
479.162	0.0257
479.469	0.0263
479.775	0.0262
480.081	0.0247
480.388	0.0253
480.694	0.0244
481	0.0251
481.306	0.0248
481.612	0.025
481.918	0.0237
482.224	0.0243
482.53	0.0239
482.835	0.0234
483.141	0.0224
483.446	0.0218
483.752	0.0225
484.057	0.0216
484.363	0.0226
484.668	0.0219
484.973	0.0213
485.278	0.0209
485.583	0.0208
485.888	0.0206
486.193	0.0207
486.498	0.0207
486.803	0.021
487.107	0.0208
487.412	0.0202
487.717	0.0197
488.021	0.0205
488.325	0.0196
488.63	0.0188
488.934	0.0196
489.238	0.0193
489.542	0.0195
489.846	0.0179
490.15	0.0198
490.454	0.0186
490.758	0.019
491.062	0.0174
491.366	0.0177
491.669	0.0185
491.973	0.018
492.276	0.018
492.58	0.0166
492.883	0.0172
493.186	0.0177
493.489	0.017
493.792	0.017
494.096	0.0168
494.399	0.0165
494.701	0.0166
495.004	0.0164
495.307	0.0157
495.61	0.0151
495.912	0.0154
496.215	0.0145
496.517	0.0144
496.82	0.0147
497.122	0.0153
497.424	0.0141
497.727	0.0144
498.029	0.0154
498.331	0.0152
498.633	0.0145
498.935	0.0138
499.237	0.0136
499.538	0.0136
499.84	0.0134
500.142	0.013
500.443	0.0136
500.745	0.0134
501.046	0.0135
501.348	0.0127
501.649	0.0134
501.95	0.012
502.251	0.0123
502.552	0.0111
502.853	0.0118
503.154	0.0117
503.455	0.012
503.756	0.0118
504.057	0.0112
504.357	0.0107
504.658	0.0106
504.958	0.0109
505.259	0.0117
505.559	0.0114
505.859	0.0111
506.16	0.011
506.46	0.0104
506.76	0.0112
507.06	0.0101
507.36	0.0102
507.66	0.0109
507.96	0.0107
508.259	0.0102
508.559	0.0098
508.859	0.0099
509.158	0.0099
509.457	0.0099
509.757	0.0098
510.056	0.0098
510.355	0.0093
510.655	0.0076
510.954	0.0095
511.253	0.0092
511.552	0.009
511.851	0.0083
512.149	0.0075
512.448	0.008
512.747	0.0088
513.045	0.008
513.344	0.0087
513.642	0.0086
513.941	0.0074
514.239	0.0082
514.537	0.0077
514.836	0.0081
515.134	0.0078
515.432	0.0077
515.73	0.0086
516.028	0.0072
516.326	0.0072
516.623	0.0082
516.921	0.0074
517.219	0.0081
517.516	0.0079
517.814	0.0065
518.111	0.0077
518.409	0.008
518.706	0.0075
519.003	0.0073
519.3	0.0054
519.597	0.0059
519.894	0.0069
520.191	0.0077
520.488	0.0065
520.785	0.0061
521.082	0.0063
521.378	0.0066
521.675	0.0057
521.971	0.0062
522.268	0.0054
522.564	0.006
522.861	0.0069
523.157	0.0047
523.453	0.0056
523.749	0.0061
524.045	0.0065
524.341	0.0059
524.637	0.0049
524.933	0.004
525.229	0.0065
525.524	0.0056
525.82	0.0061
526.115	0.0052
526.411	0.0051
526.706	0.0049
527.002	0.0049
527.297	0.0037
527.592	0.0057
527.887	0.0054
528.182	0.0056
528.477	0.0061
528.772	0.0047
529.067	0.0052
529.362	0.0051
529.657	0.0056
529.951	0.0048
530.246	0.0048
530.54	0.0029
530.835	0.0036
531.129	0.0026
531.423	0.0045
531.718	0.0043
532.012	0.0048
532.306	0.0036
532.6	0.0034
532.894	0.0042
533.188	0.0054
533.482	0.0036
533.775	0.0038
534.069	0.0025
534.363	0.0036
534.656	0.0038
534.95	0.0018
535.243	0.0032
535.536	0.0038
535.83	0.0034
536.123	0.0032
536.416	0.0038
536.709	0.0042
537.002	0.0039
537.295	0.0028
537.588	0.0048
537.881	0.0038
538.173	0.0028
538.466	0.0031
538.759	0.0027
539.051	0.0025
539.344	0.0032
539.636	0.0029
539.928	0.0025
540.22	0.0028
540.513	0.0031
540.805	0.0029
541.097	0.0029
541.389	0.0032
541.681	0.003
541.972	0.0032
542.264	0.0033
542.556	0.0034
542.847	0.0039
543.139	0.0034
543.431	0.0042
543.722	0.0044
544.013	0.0046
544.305	0.0046
544.596	0.005
544.887	0.0044
545.178	0.0033
545.469	0.0029
545.76	0.0029
546.051	0.004
546.342	0.0037
546.632	0.0025
546.923	0.0031
547.214	0.0031
547.504	0.0033
547.795	0.0037
548.085	0.0047
548.375	0.0034
548.666	0.004
548.956	0.0027
549.246	0.0035
549.536	0.0024
549.826	0.0031
550.116	0.004
550.406	0.0031
550.695	0.0047
550.985	0.0031
551.275	0.0043
551.564	0.004
551.854	0.0038
552.143	0.003
552.433	0.0032
552.722	0.0035
553.011	0.0036
553.3	0.0046
553.589	0.0036
553.879	0.0036
554.167	0.0038
554.456	0.0035
554.745	0.0029
555.034	0.0029
555.323	0.0021
555.611	0.0022
555.9	0.0036
556.188	0.0032
556.477	0.0028
556.765	0.0028
557.053	0.0036
557.342	0.0021
557.63	0.0032
557.918	0.0034
558.206	0.0035
558.494	0.0033
558.782	0.0029
559.069	0.0039
559.357	0.003
559.645	0.0026
559.932	0.0028
560.22	0.0034
560.507	0.0041
560.795	0.0024
561.082	0.0029
561.37	0.003
561.657	0.0036
561.944	0.0037
562.231	0.0023
562.518	0.001
562.805	0.0033
563.092	0.0029
563.379	0.0039
563.665	0.0028
563.952	0.0038
564.239	0.0029
564.525	0.0038
564.811	0.0045
565.098	0.0042
565.384	0.0042
565.67	0.0033
565.957	0.0037
566.243	0.0029
566.529	0.0038
566.815	0.0049
567.101	0.0033
567.387	0.0027
567.672	0.0023
567.958	0.0031
568.244	0.0044
568.529	0.0039
568.815	0.0026
569.1	0.0033
569.386	0.0036
569.671	0.0028
569.956	0.0033
570.242	0.0033
570.527	0.0031
570.812	0.0038
571.097	0.0034
571.382	0.0034
571.666	0.0037
571.951	0.003
572.236	0.003
572.521	0.0025
572.805	0.0032
573.09	0.0033
573.374	0.0029
573.659	0.0021
573.943	0.0028
574.227	0.0025
574.511	0.0037
574.795	0.0029
575.079	0.0029
575.363	0.0027
575.647	0.0035
575.931	0.0039
576.215	0.0034
576.499	0.0031
576.782	0.0031
577.066	0.0025
577.349	0.0031
577.633	0.0033
577.916	0.0035
578.2	0.0044
578.483	0.003
578.766	0.0027
579.049	0.0037
579.332	0.0036
579.615	0.0028
579.898	0.004
580.181	0.0028
580.464	0.0027
580.746	0.0023
581.029	0.0029
581.312	0.0028
581.594	0.0025
581.877	0.0032
582.159	0.0032
582.441	0.0033
582.724	0.0025
583.006	0.0023
583.288	0.0015
583.57	0.0019
583.852	0.0027
584.134	0.002
584.416	0.0029
584.697	0.0026
584.979	0.0036
585.261	0.003
585.542	0.0025
585.824	0.0031
586.105	0.0031
586.387	0.0023
586.668	0.0027
586.949	0.0028
587.231	0.0027
587.512	0.0031
587.793	0.0032
588.074	0.003
588.355	0.0029
588.636	0.0036
588.916	0.003
589.197	0.003
589.478	0.0029
589.758	0.0037
590.039	0.0026
590.319	0.0031
590.6	0.0026
590.88	0.0022
591.16	0.0022
591.441	0.0031
591.721	0.0037
592.001	0.0035
592.281	0.003
592.561	0.0027
592.841	0.0033
593.12	0.0031
593.4	0.0022
593.68	0.0028
593.959	0.0024
594.239	0.0038
594.518	0.002
594.798	0.0028
595.077	0.0035
595.356	0.0032
595.636	0.0026
595.915	0.0022
596.194	0.0027
596.473	0.0034
596.752	0.0028
597.031	0.002
597.31	0.0029
597.588	0.0023
597.867	0.0022
598.146	0.0032
598.424	0.0021
598.703	0.0028
598.981	0.0026
599.259	0.0034
599.538	0.0027
599.816	0.0033
600.094	0.0026
600.372	0.0032
600.65	0.0029
600.928	0.0026
601.206	0.0033
601.484	0.0035
601.762	0.0034
602.04	0.0033
602.317	0.0035
602.595	0.0029
602.872	0.0026
603.15	0.0019
603.427	0.0021
603.704	0.0023
603.982	0.0019
604.259	0.0018
604.536	0.002
604.813	0.0021
605.09	0.0022
605.367	0.0024
605.644	0.0022
605.921	0.0024
606.197	0.0027
606.474	0.002
606.751	0.0024
607.027	0.0024
607.304	0.0024
607.58	0.0026
607.856	0.0023
608.133	0.0022
608.409	0.0024
608.685	0.0018
608.961	0.0034
609.237	0.0025
609.513	0.0017
609.789	0.0031
610.065	0.0018
610.341	0.0024
610.616	0.0024
610.892	0.0031
611.167	0.0039
611.443	0.0032
611.718	0.0026
611.994	0.0025
612.269	0.0023
612.544	0.0024
612.819	0.0022
613.095	0.0029
613.37	0.0029
613.645	0.0021
613.919	0.0021
614.194	0.0025
614.469	0.0015
614.744	0.0012
615.019	0.0018
615.293	0.0007
615.568	0.0005
615.842	0.0009
616.116	0.0011
616.391	0.0011
616.665	0.0023
616.939	0.001
617.213	0.001
617.488	0.0012
617.762	0.0011
618.035	0.0018
618.309	0.0013
618.583	0.0013
618.857	0.0017
619.131	0.0016
619.404	0.0016
619.678	0.0017
619.951	0.0007
620.225	0.0009
620.498	0.0013
620.771	0.0017
621.045	0.0025
621.318	0.002
621.591	0.0017
621.864	0.0014
622.137	0.0007
622.41	0.0013
622.683	0.0004
622.956	0.0019
623.228	0.0028
623.501	0.0026
623.774	0.0031
624.046	0.0021
624.319	0.0017
624.591	0.0012
624.863	0.0014
625.136	0.0008
625.408	0.0015
625.68	0.0013
625.952	0.0019
626.224	0.0016
626.496	0.0018
626.768	0.0006
627.04	0.0009
627.311	0.0015
627.583	0.0009
627.855	0.001
628.126	0.001
628.398	0.0024
628.669	0.0021
628.941	0.001
629.212	0.0002
629.483	0.0012
629.755	0.0003
630.026	-0.0002
630.297	0.0006
630.568	-0
630.839	-0.0004
631.11	0.0002
631.38	-0.0011
631.651	-0.0008
631.922	-0.0006
632.192	-0.0014
632.463	-0.0009
632.733	0.0002
633.004	0.0002
633.274	-0.0003
633.545	0.0018
633.815	0.0026
634.085	0.0019
634.355	0.0014
634.625	0.0033
634.895	0.0012
635.165	0.0015
635.435	0.0012
635.705	0.0016
635.974	-0.0002
636.244	0.0016
636.514	0.0017
636.783	0.0009
637.053	0.0017
637.322	0.0004
637.591	0.0018
637.861	0.0011
638.13	0.0017
638.399	0.0012
638.668	0.0021
638.937	-0.0003
639.206	0.0013
639.475	0.0017
639.744	0.001
640.013	0.0022
640.281	0.002
640.55	0.003
640.819	0.0028
641.087	0.0024
641.356	0.0022
641.624	0.0015
641.892	0.0017
642.161	0.0017
642.429	0.0025
642.697	0.0012
642.965	0.0031
643.233	0.0022
643.501	0.0013
643.769	0.0008
644.037	0.0002
644.305	-0.0004
644.572	-0.0004
644.84	-0.0007
645.108	0.0014
645.375	-0.0004
645.643	0.0001
645.91	-0.0004
646.177	0.002
646.445	0.0031
646.712	0.0036
646.979	0.0043
647.246	0.004
647.513	0.0036
647.78	0.0033
648.047	0.0037
648.314	0.0024
648.58	0.0026
648.847	0.0014
649.114	0.001
649.38	-0.0002
649.647	0.0011
649.913	0.0004
650.18	0.0009
650.446	0.0014
650.712	0.0013
650.978	0.0016
651.245	0.0015
651.511	0.0021
651.777	0.0013
652.043	0.0024
652.309	0.0022
652.574	0.003
652.84	0.0032
653.106	0.0015
653.371	0.0001
653.637	0.0016
653.903	0.0028
654.168	0.0022
654.433	0.003
654.699	0.0027
654.964	0.0029
655.229	0.0027
655.494	0.0024
655.759	0.0015
656.024	0.0005
656.289	-0
656.554	-0.0013
656.819	-0.0001
657.084	0.0013
657.349	0.003
657.613	0.0028
657.878	0.0031
658.142	0.0027
658.407	0.0034
658.671	0.002
658.936	0.0016
659.2	0.0009
659.464	0.0016
659.728	0.0008
659.992	0.0017
660.256	0.0012
660.52	0.0004
660.784	-0.0005
661.048	-0.0008
661.312	-0.001
661.575	-0.0008
661.839	-0.0019
662.103	-0.0024
662.366	-0.0013
662.63	-0.0002
662.893	0.0005
663.156	-0.0004
663.42	-0.0012
663.683	-0.0004
663.946	0.0014
664.209	0.0023
664.472	0.0018
664.735	0.0018
664.998	0.0013
665.261	0.0016
665.524	0.0008
665.786	0.0009
666.049	0.001
666.312	0.0005
666.574	0.0017
666.837	0.0012
667.099	-0.0003
667.361	-0.0001
667.624	-0.0002
667.886	-0
668.148	-0.0003
668.41	0.0026
668.672	0.0004
668.934	0.0008
669.196	0.0007
669.458	0.0018
669.72	0.0007
669.982	0.0023
670.243	0.0023
670.505	0.0017
670.766	0.0015
671.028	0.0014
671.289	0.0021
671.551	0.0007
671.812	-0.0009
672.073	0.0007
672.334	-0.0002
672.596	0.0005
672.857	0.0005
673.118	-0.0003
673.379	-0.001
673.639	-0.0011
673.9	-0.001
674.161	-0.0022
674.422	-0.0036
674.682	-0.003
674.943	-0.003
675.203	-0.0019
675.464	-0.0007
675.724	-0.0003
675.985	0.0005
676.245	0.0008
676.505	0.0013
676.765	0.0012
677.025	0.0011
677.285	0.0013
677.545	0.0029
677.805	0.0026
678.065	0.0029
678.325	0.0026
678.585	0.0026
678.844	0.0018
679.104	0.0013
679.363	0.0024
679.623	0.003
679.882	0.0025
680.142	0.0026
680.401	0.0036
680.66	0.0036
680.919	0.0039
681.178	0.0038
681.437	0.0033
681.696	0.0035
681.955	0.0036
682.214	0.0045
682.473	0.0035
682.732	0.0036
682.99	0.0017
683.249	0.0025
683.508	0.0022
683.766	0.0032
684.024	0.0032
684.283	0.0036
684.541	0.0026
684.799	0.0033
685.058	0.003
685.316	0.0024
685.574	0.0032
685.832	0.0032
686.09	0.0027
686.348	0.0035
686.606	0.0027
686.863	0.0031
687.121	0.0033
687.379	0.0035
687.636	0.0033
687.894	0.0039
688.151	0.0042
688.409	0.0037
688.666	0.0026
688.923	0.0032
689.181	0.0025
689.438	0.0009
689.695	0.0016
689.952	-0.0002
690.209	0.0013
690.466	0.0013
690.723	0.0032
690.979	0.0029
691.236	0.0023
691.493	0.0017
691.75	0.0026
692.006	0.0028
692.263	0.0035
692.519	0.0021
692.775	0.0014
693.032	-0
693.288	0.0018
693.544	0.0019
693.8	0.0012
694.056	0.0013
694.313	0.0018
694.568	0.0019
694.824	0.0017
695.08	0.003
695.336	0.0026
695.592	0.002
695.847	0.0021
696.103	0.0023
696.359	0.0019
696.614	0.0012
696.869	0.0008
697.125	0.0007
697.38	-0.0003
697.635	-0.0006
697.891	-0.001
698.146	0.0001
698.401	0.0013
698.656	0.0005
698.911	0.0021
699.166	0.0015
699.42	0.0013
699.675	0.0011
699.93	0.0006
700.185	0.002
700.439	0.0022
700.694	0.0015
700.948	0.0029
701.203	0.0028
701.457	0.0014
701.711	0.0006
701.965	-0.0009
702.22	-0.0009
702.474	-0.0004
702.728	-0.0011
702.982	-0.0007
703.236	-0.0001
703.49	-0.0005
703.743	-0.0003
703.997	0.0007
704.251	0.0003
704.504	0.0008
704.758	0.0004
705.012	-0.0006
705.265	0.0002
705.518	0.0001
705.772	-0.0006
706.025	0.0001
706.278	-0.0002
706.531	-0.0006
706.785	-0.0007
707.038	-0
707.291	-0.0004
707.543	0.0005
707.796	-0
708.049	-0.0008
708.302	-0.0007
708.555	-0.0001
708.807	0.0005
709.06	-0.0001
709.312	-0.0015
709.565	-0.0015
709.817	-0.0024
710.069	-0.0017
710.322	-0.0005
710.574	-0.0007
710.826	-0.0004
711.078	0.0004
711.33	-0.0001
711.582	-0.0005
711.834	0.0008
712.086	0.0012
712.338	0.0017
712.59	0.0015
712.841	0.0021
713.093	0.0015
713.344	0.001
713.596	0.0017
713.847	0.0016
714.099	0.0025
714.35	0.0018
714.601	0.0022
714.853	0.0027
715.104	0.0029
715.355	0.0016
715.606	0.0019
715.857	0.0017
716.108	0.0024
716.359	0.0014
716.609	0.0026
716.86	0.002
717.111	0.0004
717.361	-0.0008
717.612	-0.0002
717.863	-0.0003
718.113	0.0001
718.363	-0
718.614	-0.0001
718.864	0.0007
719.114	0.0007
719.364	-0.0004
719.614	-0.0005
719.865	-0.0021
720.114	-0.0009
720.364	-0.0002
720.614	0.001
720.864	0.0023
721.114	0.0018
721.364	0.0025
721.613	0.0031
721.863	0.003
722.112	0.0033
722.362	0.0032
722.611	0.0022
722.86	0.0014
723.11	0.0011
723.359	0.0012
723.608	0.002
723.857	0.0026
724.106	0.0042
724.355	0.0039
724.604	0.0042
724.853	0.0034
725.102	0.0024
725.351	0.0019
725.599	0.0016
725.848	0.0018
726.097	0.0012
726.345	0.0012
726.594	0.0008
726.842	0.0008
727.09	0.0008
727.339	0.0004
727.587	0.0005
727.835	-0.0005
728.083	-0.0011
728.331	-0.0014
728.579	-0.0017
728.827	-0.0008
729.075	-0.0007
729.323	0.0007
729.571	0.001
729.818	0.0011
730.066	0.0023
730.314	0.0016
730.561	-0.0001
730.809	0.0005
731.056	-0.0005
731.303	-0.0005
731.551	-0.0001
731.798	-0.0001
732.045	0.0004
732.292	0.0003
732.539	0.0003
732.786	0.0012
733.033	0.0012
733.28	0.0018
733.527	0.0025
733.774	0.0019
734.021	0.0024
734.267	0.0025
734.514	0.003
734.76	0.0027
735.007	0.003
735.253	0.004
735.5	0.0041
735.746	0.0041
735.992	0.0041
736.238	0.0038
736.485	0.0049
736.731	0.0044
736.977	0.004
737.223	0.0037
737.469	0.0046
737.715	0.0041
737.96	0.0052
738.206	0.0049
738.452	0.0076
738.697	0.0068
738.943	0.0064
739.189	0.0051
739.434	0.0028
739.679	0.0019
739.925	0.0021
740.17	0.0012
740.415	0.0018
740.66	0.0024
740.906	0.003
741.151	0.003
741.396	0.0029
741.641	0.005
741.886	0.0057
742.13	0.0057
742.375	0.0059
742.62	0.0071
742.865	0.0051
743.109	0.0048
743.354	0.0044
743.598	0.0039
743.843	0.0045
744.087	0.0038
744.331	0.0046
744.576	0.004
744.82	0.0037
745.064	0.004
745.308	0.0022
745.552	0.0027
745.796	0.0029
746.04	0.0027
746.284	0.0011
746.528	-0.0001
746.771	0.0006
747.015	0.0011
747.259	0.0015
747.502	0.001
747.746	0.0017
747.989	0.0022
748.233	0.003
748.476	0.003
748.719	0.0046
748.963	0.0054
749.206	0.0046
749.449	0.0053
749.692	0.0039
749.935	0.005
750.178	0.0036
750.421	0.0041
750.664	0.0041
750.906	0.0035
751.149	0.0022
751.392	0.0023
751.635	0.0002
751.877	-0.0008
752.12	-0.0008
752.362	0.0001
752.604	-0.0003
752.847	0.0006
753.089	0.0014
753.331	0.001
753.573	0.0019
753.816	0.0028
754.058	0.0026
754.3	0.003
754.542	0.0045
754.783	0.0032
755.025	0.0027
755.267	0.0012
755.509	0.0011
755.75	0.0016
755.992	0.0017
756.234	0.002
756.475	0.0002
756.716	-0.0001
756.958	0.0001
757.199	-0.0007
757.44	0.0016
757.682	0.0015
757.923	0.0003
758.164	0.0002
758.405	-0.0002
758.646	0.0002
758.887	-0.0008
759.128	-0.0005
759.369	-0.0007
759.609	-0.0001
759.85	-0.0004
760.091	-0.0005
760.331	0.0004
760.572	-0.001
760.812	-0.0009
761.053	-0.0008
761.293	-0.0012
761.533	0.0008
761.774	0
762.014	0.0007
762.254	0.0011
762.494	-0.0002
762.734	-0
762.974	0.0002
763.214	-0.0005
763.454	-0.0008
763.694	-0.0002
763.933	-0.0017
764.173	-0.0006
764.413	-0.0002
764.652	0.0006
764.892	0.0008
765.131	0.0012
765.371	0.0006
765.61	0.0013
765.849	0.0009
766.089	0.0017
766.328	0.003
766.567	0.002
766.806	0.0026
767.045	0.0025
767.284	0.0029
767.523	0.0038
767.762	0.0037
768.001	0.0029
768.239	0.0029
768.478	0.0022
768.717	0.0024
768.955	0.0019
769.194	0.0013
769.432	0.0016
769.671	0.0028
769.909	0.0027
770.148	0.0035
770.386	0.0025
770.624	0.0023
770.862	0.0025
771.1	0.002
771.338	0.0019
771.576	0.0027
771.814	0.0018
772.052	0.0016
772.29	0.0026
772.528	0.0027
772.765	0.0029
773.003	0.0028
773.24	0.0032
773.478	0.0024
773.716	0.0027
773.953	0.0029
774.19	0.0026
774.428	0.0038
774.665	0.0038
774.902	0.0035
775.139	0.0022
775.376	0.0029
775.613	0.0026
775.85	0.0031
776.087	0.0029
776.324	0.0028
776.561	0.0033
776.798	0.0055
777.034	0.0056
777.271	0.0062
777.508	0.007
777.744	0.0063
777.981	0.0059
778.217	0.0056
778.454	0.0049
778.69	0.0045
778.926	0.0044
779.162	0.0049
779.399	0.0037
779.635	0.0034
779.871	0.0027
780.107	0.0043
780.343	0.0034
780.579	0.0045
780.814	0.004
781.05	0.0045
781.286	0.0037
781.522	0.0036
781.757	0.0052
781.993	0.0054
782.228	0.0055
782.464	0.0057
782.699	0.0044
782.934	0.0042
783.17	0.0043
783.405	0.0033
783.64	0.0032
783.875	0.0031
784.11	0.003
784.345	0.0045
784.58	0.003
784.815	0.0033
785.05	0.0038
785.285	0.0018
785.52	0.0018
785.754	0.0019
785.989	0.0008
786.223	0.0009
786.458	0.0013
786.692	0.0014
786.927	0.0006
787.161	0.0011
787.396	-0
787.63	0.0003
787.864	-0.0013
788.098	-0.0002
788.332	0.0002
788.566	0.0006
788.8	-0.0008
789.034	0.0005
789.268	0.0005
789.502	0.0008
789.736	0.002
789.969	0.0014
790.203	0.0023
790.437	0.0019
790.67	0.001
790.904	0.0021
791.137	-0.0003
791.37	-0.0005
791.604	-0.0008
791.837	-0.0003
792.07	0.0003
792.303	0.0008
792.537	-0.0003
792.77	-0.0004
793.003	-0.0004
793.236	-0.0015
793.469	-0.0014
793.701	-0.0005
793.934	-0.0006
794.167	-0.0007
794.4	0.0001
794.632	-0.0005
794.865	-0.0007
795.097	-0.0001
795.33	0.0007
795.562	-0.0003
795.795	0.0004
796.027	0.0005
796.259	0.0006
796.491	0.0001
796.724	-0.0005
796.956	0.0004
797.188	0.0009
797.42	0.0004
797.652	0.0009
797.883	-0
798.115	-0.0004
798.347	-0.0018
798.579	-0.0027
798.81	-0.0026
799.042	-0.0022
799.274	-0.0031
799.505	-0.0035
799.737	-0.0036
799.968	-0.0032
800.199	-0.0016
800.431	-0.0023
800.662	-0.0013
800.893	-0.0008
801.124	-0.0007
801.355	-0.0008
801.586	-0.0003
801.817	-0.0003
802.048	-0.0002
802.279	-0.0012
802.51	-0.001
802.741	-0.0021
802.971	-0.0021
803.202	-0.0028
803.433	-0.0027
803.663	-0.0017
803.894	-0.0011
804.124	-0.001
804.354	-0.0009
804.585	-0.0008
804.815	-0.0017
805.045	-0.0012
805.275	-0.0038
805.506	-0.0739
805.736	0.1544
805.966	0.1174
806.196	0.1379
